Time (s),Acceleration x (m/s^2),Acceleration y (m/s^2),Acceleration z (m/s^2)
8.404421137,-0.01756185852,0.07528692484,-0.1111742035
8.409976137,-0.01206423342,0.06123743951,-0.1117850468
8.415531137,-0.005344913341,0.04031591862,-0.112243183
8.421086137,0.004734066315,0.01466033421,-0.1111742035
8.426641137,0.01481304597,-0.009315420873,-0.1081199646
8.432196137,0.02626643144,-0.03268032894,-0.1026223376
8.437751137,0.03573456407,-0.05283828825,-0.09712471068
8.443306137,0.03985778242,-0.06826218218,-0.09040539712
8.448861137,0.04092676565,-0.0809372589,-0.08460234851
8.454416137,0.03726168349,-0.08918370306,-0.07650861889
8.459971137,0.03115320951,-0.09315420687,-0.06872031838
8.465526137,0.02428117767,-0.09345962852,-0.06032116711
8.471081137,0.01786728203,-0.09620844573,-0.05680879578
8.476636137,0.01420219894,-0.1015533581,-0.05741964281
8.482191137,0.01267508045,-0.1085781008,-0.06245913357
8.487746137,0.01557660475,-0.1175880954,-0.06566607952
8.493301137,0.02137965336,-0.1298050433,-0.06963659078
8.498856137,0.02779355086,-0.1455343664,-0.07727217674
8.504411137,0.03497100621,-0.1679829955,-0.08506047726
8.509966137,0.0401632078,-0.1930277348,-0.09132166207
8.515521137,0.04169032723,-0.2168507725,-0.09177979827
8.521076137,0.0401632078,-0.2392994165,-0.08567132801
8.526631137,0.03863608837,-0.2542651594,-0.07788302749
8.532186137,0.03863608837,-0.2623589039,-0.06765133142
8.537741137,0.04077405483,-0.2672456801,-0.05787777901
8.543296137,0.04611896724,-0.2728960216,-0.05039490014
8.548851137,0.0531437099,-0.2828222811,-0.04321744293
8.554406137,0.05940489471,-0.3006895781,-0.03726168349
8.559961137,0.06108472496,-0.3255815804,-0.03283303976
8.565516137,0.06123743951,-0.3527642787,-0.03252761811
8.571071137,0.05940489471,-0.375823766,-0.03405473381
8.576626137,0.05390727147,-0.3888042867,-0.03710897267
8.582181137,0.04917320609,-0.391705811,-0.04291202128
8.587736137,0.04169032723,-0.3897205591,-0.04886778072
8.593291137,0.03252761811,-0.3875826001,-0.05390727147
8.598846137,0.02061609551,-0.3903313875,-0.05833591148
8.604401137,0.007788302377,-0.3987305462,-0.06536065787
8.609956137,-0.00167983002,-0.4057552814,-0.07055285573
8.615511137,-0.008857285604,-0.4121691883,-0.07360709459
8.621066137,-0.01298050396,-0.4170559645,-0.07498150319
8.626621137,-0.01649287529,-0.418124944,-0.07406523079
8.632176137,-0.02076880634,-0.4132381678,-0.07024743408
8.637731137,-0.02397575416,-0.4033119082,-0.06612421572
8.643286137,-0.0287098214,-0.3939964771,-0.06368082762
8.648841137,-0.03588727489,-0.3800997138,-0.06032116711
8.654396137,-0.04443913698,-0.3662029207,-0.05543438718
8.659951137,-0.05665608495,-0.3529170156,-0.05131116882
8.665506137,-0.06795676053,-0.3431434333,-0.04825693369
8.671061137,-0.07788302749,-0.3374931216,-0.04550812021
8.676616137,-0.08597674966,-0.3260397315,-0.04275930673
8.682171137,-0.09223793447,-0.3113794029,-0.03985778242
8.687726137,-0.09697200358,-0.2933593988,-0.03802524135
8.693281137,-0.100026235,-0.2767138183,-0.03817795217
8.698836137,-0.1049130186,-0.2583884001,-0.0397050716
8.704391137,-0.1110214889,-0.2441861928,-0.03909422457
8.709946137,-0.1139230132,-0.2318165302,-0.03542914242
8.715501137,-0.1162136942,-0.2189887464,-0.03649812192
8.721056137,-0.1214058921,-0.2043284029,-0.03848337755
8.726611137,-0.1218640283,-0.1913478971,-0.04367557913
8.732166137,-0.1256818175,-0.1791309565,-0.04611896724
8.737721137,-0.1320957243,-0.1658450365,-0.04764608666
8.743276137,-0.1365243644,-0.1478250325,-0.04917320609
8.748831137,-0.1427855492,-0.1247655526,-0.05085303262
8.754386137,-0.1458397806,-0.09101624042,-0.05329642445
8.759941137,-0.1496575773,-0.05253286287,-0.05222744122
8.765496137,-0.151337415,-0.005344913341,-0.04795150831
8.771051137,-0.1478250325,0.05131116882,-0.0401632078
8.776606137,-0.1398840249,0.1102579311,-0.02565558441
8.782161137,-0.1294996142,0.1704263836,-0.008246437646
8.787716137,-0.1133121699,0.2237228155,0.01053711493
8.793271137,-0.09544488788,0.2644968629,0.02626643144
8.798826137,-0.07437065244,0.2935121059,0.0387887992
8.804381137,-0.05329642445,0.3119902313,0.04963133857
8.809936137,-0.03069507517,0.3191677034,0.05879404768
8.815491137,-0.01236965694,0.311226666,0.06734590977
8.821046137,0.004886778072,0.3003841341,0.07574506104
8.826601137,0.02000524849,0.2886253297,0.08475505561
8.832156137,0.03390202299,0.2806843221,0.09009996802
8.837711137,0.04718795046,0.2854183912,0.09223793447
8.843266137,0.05772506446,0.3034383655,0.09223793447
8.848821137,0.06841489673,0.3269560039,0.09132166207
8.854376137,0.07207997888,0.3480302393,0.08994726092
8.859931137,0.07330167294,0.3631486893,0.08704573661
8.865486137,0.06780404598,0.3706315756,0.07971556485
8.871041137,0.05772506446,0.3666610718,0.07345438004
8.876596137,0.04428642616,0.355665803,0.06642963737
8.882151137,0.03191677108,0.3413109183,0.06001574174
8.887706137,0.01847812906,0.3234436214,0.0540599823
8.893261137,0.007024743594,0.3074088693,0.05070032179
8.898816137,-0.007024743594,0.2899997234,0.04398100078
8.904371137,-0.01847812906,0.2724378705,0.0426065959
8.909926137,-0.03634541109,0.2538070381,0.04046862945
8.915481137,-0.05726693198,0.2353289127,0.0387887992
8.921036137,-0.08338065445,0.2171562016,0.03771981969
8.926591137,-0.1119377613,0.2017323077,0.03481829539
8.932146137,-0.1420219839,0.1992889196,0.03161134571
8.937701137,-0.1695101112,0.2063136548,0.02809897438
8.943256137,-0.1925695986,0.2264716178,0.0253501609
8.948811137,-0.2116585821,0.2498365343,0.02428117767
8.954366137,-0.2267770469,0.2709107697,0.02932066843
8.959921137,-0.2409792393,0.2828222811,0.04245388508
8.965476137,-0.2519744933,0.2887780368,0.06123743951
8.971031137,-0.2573194206,0.2947337925,0.07956285775
8.976586137,-0.2567085624,0.304812789,0.09605573118
8.982141137,-0.2499892414,0.3180987239,0.1101052165
8.987696137,-0.2363978922,0.3339807391,0.1207950488
8.993251137,-0.2200577259,0.3520007432,0.1322484314
8.998806137,-0.1960819662,0.3710896969,0.1495048702
9.004361137,-0.1716480851,0.3910949528,0.1699682474
9.009916137,-0.1411057115,0.4146125913,0.1930277348
9.015471137,-0.109036237,0.4396573007,0.2191414535
9.021026137,-0.07421794534,0.4721849263,0.2362451702
9.026581137,-0.03665083647,0.5176930428,0.2478512824
9.032136137,0.004428642802,0.5746545792,0.253348887
9.037691137,0.05024218559,0.6435275674,0.2538070381
9.043246137,0.09773556143,0.7203416228,0.2493783981
9.048801137,0.1470614821,0.7962393761,0.2392994165
9.054356137,0.1971509457,0.860989213,0.2212794125
9.059911137,0.2501419485,0.8996253014,0.1939440072
9.065466137,0.3022166789,0.9049702287,0.1574458778
9.071021137,0.3498627543,0.8826742768,0.1160609797
9.076576137,0.3898732662,0.8325847983,0.07711946964
9.082131137,0.4277457893,0.7572978735,0.04352286831
9.087686137,0.4599680007,0.6668924689,0.01603474095
9.093241137,0.489441365,0.5648810267,-0.006108472589
9.098796137,0.5172349215,0.4541649222,-0.02260134928
9.104351137,0.5431959033,0.3443651497,-0.03313846514
9.109906137,0.5656445622,0.233649075,-0.03649812192
9.115461137,0.5851916671,0.1220167428,-0.03619270027
9.121016137,0.6015318632,0.01404948719,-0.03588727489
9.126571137,0.6131379604,-0.08490777016,-0.03848337755
9.132126137,0.6174138784,-0.1818797737,-0.04718795046
9.137681137,0.6103891134,-0.2725905776,-0.05589252338
9.143236137,0.5896202922,-0.3536805511,-0.06444438547
9.148791137,0.556176424,-0.4385883212,-0.06994201243
9.154346137,0.5109737515,-0.5445703268,-0.06719319522
9.159901137,0.4651601911,-0.6569662094,-0.03115320951
9.165456137,0.4060607255,-0.7458444834,0.02611372061
9.171011137,0.3374931216,-0.7995990515,0.04642439261
9.176566137,0.2661767006,-0.8238802552,0.04230117425
9.182121137,0.1918060333,-0.8156337738,0.02382304333
9.187676137,0.1125486046,-0.778524816,-0.001221694518
9.193231137,0.03191677108,-0.7189671993,-0.02168507688
9.198786137,-0.05344913527,-0.6302416325,-0.02779355086
9.204341137,-0.1415638477,-0.5279247165,-0.03451287001
9.209896137,-0.2272351831,-0.409267664,-0.05192201585
9.215451137,-0.3080197275,-0.2773246467,-0.07559234649
9.221006137,-0.389567852,-0.1275143623,-0.08933641016
9.226561137,-0.4720322192,0.03527642787,-0.0813953951
9.232116137,-0.558925271,0.2038702667,-0.05192201585
9.237671137,-0.6474980712,0.3710896969,-0.01450762246
9.243226137,-0.7369872332,0.5288410187,0.01863084175
9.248781137,-0.8220477104,0.6690304875,0.04077405483
9.254336137,-0.9000834227,0.7983773947,0.05176930502
9.259891137,-0.9717052579,0.9077190161,0.05222744122
9.265446137,-1.036149621,0.9926267862,0.04443913698
9.271001137,-1.090209603,1.05233717,0.03054236248
9.276556137,-1.130525589,1.090667725,0.01252236869
9.282111137,-1.155112147,1.107618809,-0.01023169141
9.287666137,-1.155417562,1.112047434,-0.03634541109
9.293221137,-1.131441832,1.117392302,-0.06123743951
9.298776137,-1.085933685,1.124569774,-0.08857285231
9.304331137,-1.022252917,1.127929449,-0.1171299592
9.309886137,-0.9449806809,1.119683027,-0.1408002973
9.315441137,-0.8533536196,1.088682532,-0.1546970755
9.320996137,-0.7527165413,1.027597785,-0.1565296054
9.326551137,-0.6424586177,0.9397885203,-0.1525591016
9.332106137,-0.5253286362,0.8206732869,-0.1487413049
9.337661137,-0.4052971601,0.6708629727,-0.1493521482
9.343216137,-0.280531615,0.4909684956,-0.1652341783
9.348771137,-0.1606528312,0.2875563502,-0.1939440072
9.354326137,-0.04611896724,0.07146912813,-0.2344126403
9.359881137,0.05925218388,-0.1426328421,-0.2796153426
9.365436137,0.1531699449,-0.3329117596,-0.3155026138
9.370991137,0.2307475507,-0.4830274582,-0.3364241421
9.376546137,0.2880144715,-0.5867187977,-0.3454341292
9.382101137,0.3324536085,-0.6497887969,-0.3449759781
9.387656137,0.3633013964,-0.6823163629,-0.33810395
9.393211137,0.3814741075,-0.691631794,-0.3229855001
9.398766137,0.3851391971,-0.674069941,-0.3055763543
9.404321137,0.3773508966,-0.6374191046,-0.289083451
9.409876137,0.3526115716,-0.6088619828,-0.2718270421
9.415431137,0.3188622594,-0.578625083,-0.2615953386
9.420986137,0.2793098986,-0.5413633585,-0.257930249
9.426541137,0.2319692522,-0.4955498278,-0.2576248348
9.432096137,0.1798945218,-0.440420866,-0.2539597452
9.437651137,0.1236965731,-0.3726168275,-0.2484621257
9.443206137,0.06933116168,-0.2910687327,-0.2400629669
9.448761137,0.01664558798,-0.2015796006,-0.2281514555
9.454316137,-0.03665083647,-0.1146865711,-0.213491112
9.459871137,-0.08612946421,-0.03619270027,-0.197914511
9.465426137,-0.1304158866,0.02565558441,-0.1805053651
9.470981137,-0.1655396074,0.07711946964,-0.1605001241
9.476536137,-0.1936385781,0.1160609797,-0.1403421611
9.482091137,-0.2128802687,0.1466033459,-0.1240019947
9.487646137,-0.2267770469,0.1811162084,-0.1096470803
9.493201137,-0.2362451702,0.2208212912,-0.09193251282
9.498756137,-0.2406738251,0.2715215981,-0.07040014863
9.504311137,-0.2415900975,0.3287885487,-0.04642439261
9.509866137,-0.238077715,0.3901786804,-0.02489202656
9.515421137,-0.2276933193,0.4463766217,-0.004581354558
9.520976137,-0.2041756958,0.4989095032,0.01710372418
9.526531137,-0.162485376,0.5425850749,0.03863608837
9.532086137,-0.1043021679,0.5735855699,0.06291726977
9.537641137,-0.03313846514,0.5839699507,0.09071081877
9.543196137,0.04963133857,0.5706840754,0.1217113137
9.548751137,0.1385096163,0.5291464329,0.1580567211
9.554306137,0.2351761907,0.4543176591,0.1899735034
9.559861137,0.3254288733,0.3573456407,0.2228065431
9.565416137,0.411405623,0.238077715,0.2521272004
9.570971137,0.4931064546,0.1087308154,0.2806843221
9.576526137,0.5685460567,-0.01725643501,0.3103103936
9.582081137,0.6371136904,-0.1288887709,0.3432961702
9.587636137,0.7017107606,-0.2153236568,0.3796415627
9.593191137,0.7583668828,-0.2770192325,0.4259132445
9.598746137,0.8061656952,-0.3168770075,0.4836383164
9.604301137,0.8467870355,-0.3390202224,0.558925271
9.609856137,0.8767185211,-0.3503209054,0.6455128193
9.615411137,0.8939749599,-0.3510844707,0.7423321605
9.620966137,0.9084826112,-0.333828032,0.8492304087
9.626521137,0.9203941226,-0.2909159958,0.9536852837
9.632076137,0.9312366247,-0.2214321345,1.048977494
9.637631137,0.9397885203,-0.1307213157,1.131899953
9.643186137,0.947729528,-0.02947338112,1.194664478
9.648741137,0.9509364963,0.05894676223,1.250709772
9.654296137,0.9338327646,0.1137702987,1.294538021
9.659851137,0.8889354467,0.1038440317,1.30660224
9.665406137,0.8307522535,0.05986303091,1.31958282
9.670961137,0.7826480269,0.08674030751,1.372421026
9.676516137,0.760810256,0.238230437,1.46282649
9.682071137,0.7802046537,0.5471664071,1.59049356
9.687626137,0.8638907075,1.055849433,1.760156393
9.693181137,1.089140654,1.85254705,1.995943427
9.698736137,1.390746474,2.695668936,2.270672083
9.704291137,1.571709991,3.189386368,2.531351089
9.709846137,1.591104388,3.192898512,2.719186544
9.715401137,1.509098172,2.8059268,2.812035322
9.720956137,1.4008255,2.17293644,2.805621386
9.726511137,1.313016176,1.426022887,2.723004341
9.732066137,1.265675545,0.7259919643,2.585869074
9.737621137,1.255901933,0.1223221645,2.429339647
9.743176137,1.274838209,-0.3440597057,2.295411348
9.748731137,1.321109891,-0.6836907864,2.189276695
9.754286137,1.387081385,-0.9261971712,2.108492136
9.759841137,1.452289343,-1.042410851,2.033663273
9.765396137,1.507265568,-1.052642584,1.956543803
9.770951137,1.544374585,-1.004385591,1.87026155
9.776506137,1.550024867,-0.9306257963,1.783368587
9.782061137,1.51230514,-0.8246437907,1.699529767
9.787616137,1.420219898,-0.6728482842,1.610498786
9.793171137,1.270714998,-0.5089884996,1.526049137
9.798726137,1.086391807,-0.3869717419,1.448624253
9.804281137,0.8930587173,-0.3013004065,1.36860323
9.809836137,0.7154548764,-0.2351761907,1.289956689
9.815391137,0.5621321797,-0.231511116,1.237882018
9.820946137,0.4167505503,-0.3255815804,1.233758807
9.826501137,0.278088212,-0.4711159468,1.260177851
9.832056137,0.1661504507,-0.5931326747,1.299424887
9.837611137,0.09743013978,-0.6497887969,1.352568507
9.843166137,0.07360709459,-0.5937435627,1.416860223
9.848721137,0.1056765765,-0.3533751369,1.492299795
9.854276137,0.1479777545,-0.03176405653,1.5930897
9.859831137,0.1748550236,0.2796153426,1.718618751
9.865386137,0.1743968874,0.534185946,1.855448604
9.870941137,0.142327413,0.7153021693,1.982962966
9.876496137,0.09300149232,0.8078454733,2.093831778
9.882051137,0.02397575416,0.8309049606,2.20515871
9.887606137,-0.05054761097,0.8347227573,2.304574013
9.893161137,-0.114533864,0.843274653,2.38856554
9.898716137,-0.1637070626,0.8579349518,2.432240963
9.904271137,-0.195776552,0.8629744649,2.39696455
9.909826137,-0.2345653474,0.7701256871,2.311904192
9.915381137,-0.2675510943,0.6287145615,2.199966431
9.920936137,-0.289388895,0.4329380095,2.090319395
9.926491137,-0.2808370292,0.2334963679,1.966317296
9.932046137,-0.2444916219,0.05986303091,1.84002471
9.937601137,-0.1953184158,-0.1128540337,1.731904745
9.943156137,-0.1491994411,-0.3022166789,1.66654408
9.948711137,-0.1012479365,-0.4706578255,1.615690947
9.954266137,-0.04856235534,-0.6540647149,1.583468795
9.959821137,0.02641914412,-0.8360971808,1.559493065
9.965376137,0.1264453828,-1.036760569,1.540404081
9.970931137,0.240368396,-1.19558084,1.521925926
9.976486137,0.3506263196,-1.278656006,1.511847019
9.982041137,0.4344651103,-1.307671309,1.520398855
9.987596137,0.4727957845,-1.297592282,1.550635815
9.993151137,0.4813476503,-1.205659747,1.555217147
9.998706137,0.4758500159,-1.065317631,1.517497301
10.00426114,0.4311054647,-0.9246700406,1.459772229
10.00981614,0.3713951409,-0.7771504521,1.362494826
10.01537114,0.2935121059,-0.6833853722,1.266286373
10.02092614,0.215781793,-0.6320741773,1.165038466
10.02648114,0.1684411317,-0.6113054156,1.035386086
10.03203614,0.1382041872,-0.6029062271,0.9026795626
10.03759114,0.1027750522,-0.6302416325,0.8015843034
10.04314614,0.06429167092,-0.6646018028,0.738819778
10.04870114,0.02412846684,-0.6896465421,0.694380641
10.05425614,-0.01038440317,-0.7240067124,0.6473453641
10.05981114,-0.05039490014,-0.7956285477,0.6132906675
10.06536614,-0.1036913246,-0.887866497,0.5989357233
10.07092114,-0.1551551968,-0.94085747,0.5815265775
10.07647614,-0.2096733153,-0.9242119193,0.5719057322
10.08203114,-0.2747285664,-0.8359444737,0.5567872524
10.08758614,-0.3373403847,-0.7026270628,0.5248705149
10.09314114,-0.3970507085,-0.5763344169,0.4865398407
10.09869614,-0.4530959427,-0.4278984964,0.4416425824
10.10425114,-0.5118899941,-0.260373652,0.398119688
10.10980614,-0.5624375939,-0.1101052165,0.3463504016
10.11536114,-0.6106945276,0.008551862091,0.3150444627
10.12091614,-0.6513158679,0.1044548824,0.280226171
10.12647114,-0.6739172339,0.1980672181,0.2186833173
10.13202614,-0.6884248853,0.2744231224,0.1374406368
10.13758114,-0.7047650218,0.2719797492,0.06551336497
10.14313614,-0.7313368917,0.2661767006,0.003359660041
10.14869114,-0.7432484031,0.2192941606,-0.09544488788
10.15424614,-0.7333221436,0.1716480851,-0.2043284029
10.15980114,-0.7015580535,0.1363716573,-0.3232909143
10.16535614,-0.6468872428,0.08429691941,-0.4520269632
10.17091114,-0.5679352283,-0.0007635590737,-0.5859552622
10.17646614,-0.4801259339,-0.1301104724,-0.7160657048
10.18202114,-0.3874298632,-0.2964136302,-0.8331956863
10.18757614,-0.3025220931,-0.4957025647,-0.9286405444
10.19313114,-0.2333436459,-0.6995728016,-0.9891144037
10.19868614,-0.2040229887,-0.8713735938,-1.017518878
10.20424114,-0.2217375487,-0.9530744553,-1.035233378
10.20979614,-0.2799207568,-0.8935168386,-1.06898272
10.21535114,-0.375823766,-0.5923691392,-1.120446563
10.22090614,-0.5170822144,0.005039489828,-1.200620294
10.22646114,-0.7153021693,0.7178982496,-1.330730796
10.23201614,-0.9379559755,1.193442822,-1.543000221
10.23757114,-1.151905179,1.282015681,-1.821546555
10.24312614,-1.311489105,1.224596024,-2.13170433
10.24868114,-1.382347345,1.270714998,-2.428728819
10.25423614,-1.428771734,1.411820769,-2.682077646
10.25979114,-1.510319829,1.411515355,-2.850060701
10.26534614,-1.585606813,1.188708782,-2.934815645
10.27090114,-1.627144337,0.894127667,-2.963678122
10.27645614,-1.639514089,0.6907155514,-2.954668283
10.28201114,-1.622715712,0.6047387719,-2.92519474
10.28756614,-1.593395114,0.6103891134,-2.876632452
10.29312114,-1.56651783,0.6879667044,-2.807759523
10.29867614,-1.538266063,0.8124268651,-2.721171856
10.30423114,-1.508640051,0.9608627558,-2.612899065
10.30978614,-1.473821759,1.100441337,-2.493020296
10.31534114,-1.421288848,1.231620789,-2.378792048
10.32089614,-1.341420531,1.333937645,-2.28594327
10.32645114,-1.241241574,1.394411564,-2.194926977
10.33200614,-1.129303813,1.411973476,-2.100856543
10.33756114,-1.009577751,1.384485364,-2.004800797
10.34311614,-0.8838959932,1.317902923,-1.903705478
10.34867114,-0.7423321605,1.195886254,-1.796654463
10.35422614,-0.5978667736,1.039203882,-1.681967974
10.35978114,-0.462564081,0.874427855,-1.574458838
10.36533614,-0.3552076817,0.6923953891,-1.47275269
10.37089114,-0.2829749882,0.4756973088,-1.364174604
10.37644614,-0.2547233105,0.2551814318,-1.253153205
10.38200114,-0.2768665254,0.0421484597,-1.163205862
10.38755614,-0.3220692277,-0.1475196183,-1.118003249
10.39311114,-0.3860554695,-0.3055763543,-1.121057391
10.39866614,-0.4686725736,-0.4155288339,-1.181836724
10.40422114,-0.560452342,-0.4735593498,-1.305838704
10.40977614,-0.6375718117,-0.4775298536,-1.473363638
10.41533114,-0.6934643388,-0.4706578255,-1.652647257
10.42088614,-0.725533843,-0.4808894992,-1.812383771
10.42644114,-0.7325585485,-0.5196782947,-1.943868637
10.43199614,-0.71423316,-0.5989357233,-2.038091898
10.43755114,-0.6728482842,-0.7125533223,-2.077338934
10.44310614,-0.6164975762,-0.8480086923,-2.067565203
10.44866114,-0.5502206683,-0.992321372,-2.008465767
10.45421614,-0.4689779878,-1.132358074,-1.913020849
10.45977114,-0.375823766,-1.247350097,-1.790393353
10.46532614,-0.2790044844,-1.31805563,-1.649745703
